-5.855012193772748397e+00	-5.850769042968750000e+00	1.716264486312866211e+00
-5.838895485373103433e+00	-5.074485778808593750e+00	1.815579771995544434e+00
-5.822734897540524202e+00	-4.328605651855468750e+00	1.829436898231506348e+00
-5.806530551722195455e+00	-4.900505065917968750e+00	1.817393183708190918e+00
-5.790282569694146453e+00	-1.096536254882812500e+01	1.804404854774475098e+00
-5.773991073560334364e+00	-6.651832580566406250e+00	1.809374213218688965e+00
-5.757656185751725886e+00	-7.260368347167968750e+00	1.823524832725524902e+00
-5.741278029025372653e+00	-7.397277832031250000e+00	1.813236117362976074e+00
-5.724856726463499079e+00	-6.765441894531250000e+00	1.811273097991943359e+00
-5.708392401472565325e+00	-3.467613220214843750e+00	1.824481487274169922e+00
-5.691885177782355143e+00	-2.834197998046875000e+00	1.835186123847961426e+00
-5.675335179445029077e+00	-8.337768554687500000e+00	1.828524947166442871e+00
-5.658742530834201645e+00	-5.418266296386718750e+00	1.825125575065612793e+00
-5.642107356644006977e+00	-5.515869140625000000e+00	1.812415242195129395e+00
-5.625429781888160008e+00	-1.674110412597656250e+00	1.802406311035156250e+00
-5.608709931899014123e+00	-4.200248718261718750e+00	1.803127527236938477e+00
-5.591947932326625903e+00	-3.306724548339843750e+00	1.832613825798034668e+00
-5.575143909137801224e+00	-2.964302062988281250e+00	1.842908859252929688e+00
-5.558297988615162666e+00	-1.876953125000000000e+00	1.799184203147888184e+00
-5.541410297356186732e+00	-2.089508056640625000e+00	1.826224446296691895e+00
-5.524480962272257045e+00	-6.567054748535156250e+00	1.843643069267272949e+00
-5.507510110587715779e+00	-3.052810668945312500e+00	1.844368934631347656e+00
-5.490497869838899092e+00	-2.143127441406250000e+00	1.842567920684814453e+00
-5.473444367873184113e+00	-5.627120971679687500e+00	1.825898766517639160e+00
-5.456349732848029710e+00	-4.319183349609375000e+00	1.843319296836853027e+00
-5.439214093230007485e+00	-5.862754821777343750e+00	1.824948668479919434e+00
-5.422037577793840768e+00	-3.434616088867187500e+00	1.841539025306701660e+00
-5.404820315621435611e+00	-6.067810058593750000e+00	1.828815579414367676e+00
-5.387562436100910901e+00	-1.222770690917968750e+00	1.817144513130187988e+00
-5.370264068925624024e+00	-1.692749023437500000e+00	1.839335680007934570e+00
-5.352925344093200977e+00	-2.533805847167968750e+00	1.825525403022766113e+00
-5.335546391904553154e+00	-1.198974609375000000e+00	1.834679961204528809e+00
-5.318127342962905679e+00	-3.640769958496093750e+00	1.847681522369384766e+00
-5.300668328172805310e+00	-3.826538085937500000e+00	1.839123964309692383e+00
-5.283169478739149660e+00	-5.617881774902343750e+00	1.846267104148864746e+00
-5.265630926166193326e+00	-2.407402038574218750e+00	1.865337729454040527e+00
-5.248052802256557570e+00	-8.576812744140625000e-01	1.850981831550598145e+00
-5.230435239110243550e+00	1.043846130371093750e+00	1.862163066864013672e+00
-5.212778369123642896e+00	-4.881141662597656250e+00	1.842449188232421875e+00
-5.195082324988536726e+00	-1.979583740234375000e+00	1.859695911407470703e+00
-5.177347239691101777e+00	-4.967483520507812500e+00	1.831441164016723633e+00
-5.159573246510904987e+00	-4.046981811523437500e+00	1.858551144599914551e+00
-5.141760479019915842e+00	-3.236991882324218750e+00	1.850123405456542969e+00
-5.123909071081486744e+00	-1.335861206054687500e+00	1.850715041160583496e+00
-5.106019156849355589e+00	-2.229454040527343750e+00	1.866886377334594727e+00
-5.088090870766639462e+00	5.164413452148437500e-01	1.845835804939270020e+00
-5.070124347564812339e+00	-3.253684997558593750e+00	1.883164405822753906e+00
-5.052119722262711221e+00	-3.474655151367187500e+00	1.884382963180541992e+00
-5.034077130165503178e+00	-2.373367309570312500e+00	1.869255661964416504e+00
-5.015996706863684373e+00	-2.205383300781250000e+00	1.852206349372863770e+00
-4.997878588232044450e+00	-3.836624145507812500e+00	1.881929159164428711e+00
-4.979722910428660221e+00	-2.743209838867187500e+00	1.887224435806274414e+00
-4.961529809893866272e+00	-1.534194946289062500e-01	1.861663937568664551e+00
-4.943299423349228228e+00	2.882843017578125000e+00	1.865359544754028320e+00
-4.925031887796514241e+00	-2.742439270019531250e+00	1.895185708999633789e+00
-4.906727340516675362e+00	-7.432022094726562500e-01	1.876198053359985352e+00
-4.888385919068799268e+00	1.002113342285156250e+00	1.877195596694946289e+00
-4.870007761289090631e+00	2.620285034179687500e+00	1.835716128349304199e+00
-4.851593005289823957e+00	-1.087265014648437500e+00	1.854769945144653320e+00
-4.833141789458307969e+00	-1.424568176269531250e+00	1.862232327461242676e+00
-4.814654252455853545e+00	-2.725769042968750000e+00	1.849593877792358398e+00
-4.796130533216723002e+00	-2.787261962890625000e+00	1.841294527053833008e+00
-4.777570770947090928e+00	6.582641601562500000e-02	1.861248731613159180e+00
-4.758975105123992577e+00	2.595451354980468750e+00	1.873289585113525391e+00
-4.740343675494282927e+00	1.495788574218750000e+00	1.875644326210021973e+00
-4.721676622073581520e+00	-1.364173889160156250e+00	1.882270455360412598e+00
-4.702974085145218197e+00	1.943855285644531250e+00	1.892030358314514160e+00
-4.684236205259187713e+00	2.094062805175781250e+00	1.912444472312927246e+00
-4.665463123231085696e+00	7.702713012695312500e-01	1.891676068305969238e+00
-4.646654980141050828e+00	2.870483398437500000e+00	1.899959087371826172e+00
-4.627811917332707914e+00	-2.057556152343750000e+00	1.901750326156616211e+00
-4.608934076412107395e+00	-3.907348632812500000e+00	1.897201061248779297e+00
-4.590021599246650652e+00	-1.043502807617187500e+00	1.901248574256896973e+00
-4.571074627964039294e+00	-3.916175842285156250e+00	1.920395731925964355e+00
-4.552093304951192465e+00	-2.996879577636718750e+00	1.905615806579589844e+00
-4.533077772853186360e+00	-5.623474121093750000e-01	1.913590550422668457e+00
-4.514028174572182195e+00	-2.793876647949218750e+00	1.907079935073852539e+00
-4.494944653266342627e+00	-4.133323669433593750e+00	1.929518342018127441e+00
-4.475827352348767718e+00	-2.178329467773437500e+00	1.921475410461425781e+00
-4.456676415486409581e+00	1.332450866699218750e+00	1.925651192665100098e+00
-4.437491986598998572e+00	-2.638816833496093750e+00	1.935701727867126465e+00
-4.418274209857953494e+00	-1.913681030273437500e+00	1.935296177864074707e+00
-4.399023229685305125e+00	1.353340148925781250e+00	1.940030813217163086e+00
-4.379739190752609979e+00	-2.587882995605468750e+00	1.946818590164184570e+00
-4.360422237979861393e+00	-1.487731933593750000e-01	1.911735057830810547e+00
-4.341072516534401515e+00	-3.191886901855468750e+00	1.953725934028625488e+00
-4.321690171829828842e+00	1.782768249511718750e+00	1.968812108039855957e+00
-4.302275349524903980e+00	3.447723388671875000e-01	1.959775686264038086e+00
-4.282828195522461634e+00	1.897872924804687500e+00	1.952399373054504395e+00
-4.263348855968309259e+00	-4.090652465820312500e+00	1.966774821281433105e+00
-4.243837477250128387e+00	-3.557189941406250000e+00	1.934552788734436035e+00
-4.224294205996373286e+00	-4.121269226074218750e+00	1.956650853157043457e+00
-4.204719189075175834e+00	1.264724731445312500e+00	1.966468334197998047e+00
-4.185112573593236185e+00	2.079360961914062500e+00	1.992486953735351562e+00
-4.165474506894716100e+00	-9.169540405273437500e-01	1.981744527816772461e+00
-4.145805136560135828e+00	1.634162902832031250e+00	1.985117912292480469e+00
-4.126104610405261219e+00	1.574623107910156250e+00	1.996367812156677246e+00
-4.106373076479997941e+00	9.906539916992187500e-01	2.009881973266601562e+00
-4.086610683067273264e+00	1.841835021972656250e+00	2.014140367507934570e+00
-4.066817578681926726e+00	-9.823913574218750000e-01	2.007235527038574219e+00
-4.046993912069588362e+00	-2.237030029296875000e+00	2.000631332397460938e+00
-4.027139832205565817e+00	-1.865585327148437500e+00	2.042550086975097656e+00
-4.007255488293720802e+00	-1.086990356445312500e+00	2.049392938613891602e+00
-3.987341029765355316e+00	-6.001892089843750000e-01	2.019295692443847656e+00
-3.967396606278079219e+00	-1.772308349609375000e+00	2.038719177246093750e+00
-3.947422367714689795e+00	1.734390258789062500e+00	2.052630901336669922e+00
-3.927418464182045543e+00	-3.192039489746093750e+00	2.053013324737548828e+00
-3.907385046009939966e+00	-6.679306030273437500e-01	2.054244279861450195e+00
-3.887322263749966922e+00	-2.032562255859375000e+00	2.059982299804687500e+00
-3.867230268174394858e+00	2.877914428710937500e+00	2.063161134719848633e+00
-3.847109210275026836e+00	-2.731674194335937500e+00	2.066514968872070312e+00
-3.826959241262075206e+00	-4.446868896484375000e-01	2.078237056732177734e+00
-3.806780512563014973e+00	2.214988708496093750e+00	2.071741819381713867e+00
-3.786573175821455806e+00	-3.016502380371093750e+00	2.073778152465820312e+00
-3.766337382895992736e+00	-2.821540832519531250e+00	2.056509733200073242e+00
-3.746073285859072399e+00	5.818634033203125000e-01	2.101370573043823242e+00
-3.725781036995847728e+00	6.098098754882812500e-01	2.103805541992187500e+00
-3.705460788803030425e+00	-3.375740051269531250e+00	2.088025331497192383e+00
-3.685112693987751875e+00	-2.221145629882812500e-01	2.103684902191162109e+00
-3.664736905466409400e+00	1.133140563964843750e+00	2.074019193649291992e+00
-3.644333576363516958e+00	1.796966552734375000e+00	2.107148408889770508e+00
-3.623902860010561167e+00	-4.625549316406250000e-01	2.105030536651611328e+00
-3.603444909944839569e+00	-1.308731079101562500e+00	2.099595308303833008e+00
-3.582959879908316658e+00	-3.007568359375000000e+00	2.095721244812011719e+00
-3.562447923846459474e+00	5.188446044921875000e+00	2.109135389328002930e+00
-3.541909195907086971e+00	-4.872283935546875000e-01	2.120888948440551758e+00
-3.521343850439208722e+00	1.376266479492187500e+00	2.113962888717651367e+00
-3.500752041991865404e+00	1.539154052734375000e-01	2.163685798645019531e+00
-3.480133925312967946e+00	-4.018157958984375000e+00	2.134362936019897461e+00
-3.459489655348133574e+00	1.402587890625000000e-01	2.142990589141845703e+00
-3.438819387239524072e+00	4.462753295898437500e+00	2.120032072067260742e+00
-3.418123276324674720e+00	3.040512084960937500e+00	2.149387359619140625e+00
-3.397401478135333441e+00	1.666687011718750000e+00	2.131868362426757812e+00
-3.376654148396284860e+00	4.208862304687500000e+00	2.150526046752929688e+00
-3.355881443024186783e+00	-1.760879516601562500e+00	2.160226583480834961e+00
-3.335083518126396029e+00	7.387237548828125000e-01	2.158377170562744141e+00
-3.314260529999791149e+00	6.764678955078125000e-01	2.155143737792968750e+00
-3.293412635129604027e+00	3.949859619140625000e+00	2.156158447265625000e+00
-3.272539990188241266e+00	1.068099975585937500e+00	2.183250427246093750e+00
-3.251642752034106021e+00	4.973617553710937500e+00	2.182060241699218750e+00
-3.230721077710420719e+00	1.485992431640625000e+00	2.211598634719848633e+00
-3.209775124444044891e+00	-5.917053222656250000e-01	2.216211557388305664e+00
-3.188805049644297007e+00	-1.319946289062500000e+00	2.214623212814331055e+00
-3.167811010901766977e+00	1.742355346679687500e+00	2.230908870697021484e+00
-3.146793165987136653e+00	2.311203002929687500e+00	2.198703289031982422e+00
-3.125751672849988338e+00	2.097442626953125000e+00	2.224059820175170898e+00
-3.104686689617626172e+00	8.308135986328125000e+00	2.240116596221923828e+00
-3.083598374593879310e+00	1.485443115234375000e-01	2.219099998474121094e+00
-3.062486886257916652e+00	-3.443939208984375000e+00	2.218050241470336914e+00
-3.041352383263055348e+00	1.243896484375000000e+00	2.227834463119506836e+00
-3.020195024435567976e+00	1.076675415039062500e+00	2.228314161300659180e+00
-2.999014968773489720e+00	-5.430603027343750000e-02	2.237031459808349609e+00
-2.977812375445421544e+00	2.977630615234375000e+00	2.249940872192382812e+00
-2.956587403789338264e+00	2.033905029296875000e+00	2.275958538055419922e+00
-2.935340213311385948e+00	3.659561157226562500e+00	2.272305011749267578e+00
-2.914070963684685989e+00	1.037109375000000000e+00	2.278117418289184570e+00
-2.892779814748135614e+00	3.200836181640625000e-01	2.291341304779052734e+00
-2.871466926505204853e+00	2.903930664062500000e+00	2.284216403961181641e+00
-2.850132459122735717e+00	-5.895233154296875000e-01	2.300470829010009766e+00
-2.828776572929738276e+00	2.970520019531250000e+00	2.288881778717041016e+00
-2.807399428416185838e+00	-1.314712524414062500e+00	2.313556671142578125e+00
-2.786001186231804816e+00	6.701766967773437500e+00	2.272112846374511719e+00
-2.764582007184877455e+00	7.324066162109375000e+00	2.298030614852905273e+00
-2.743142052241021922e+00	-7.743835449218750000e-02	2.276229381561279297e+00
-2.721681482521987938e+00	1.675384521484375000e+00	2.328569173812866211e+00
-2.700200459304449740e+00	-1.632171630859375000e+00	2.337620258331298828e+00
-2.678699144018785727e+00	-2.443847656250000000e-01	2.329248428344726562e+00
-2.657177698247871866e+00	3.580215454101562500e+00	2.309736728668212891e+00
-2.635636283725864892e+00	3.904800415039062500e+00	2.314677953720092773e+00
-2.614075062336986832e+00	1.748199462890625000e-01	2.376581668853759766e+00
-2.592494196114308647e+00	8.187255859375000000e-01	2.424010515213012695e+00
-2.570893847238532981e+00	-1.757751464843750000e+00	2.393769502639770508e+00
-2.549274178036774696e+00	3.595062255859375000e+00	2.325054407119750977e+00
-2.527635350981342288e+00	3.228759765625000000e-02	2.315708398818969727e+00
-2.505977528688514866e+00	-1.611358642578125000e+00	2.341519117355346680e+00
-2.484300873917322239e+00	1.305953979492187500e+00	2.397429227828979492e+00
-2.462605549568318786e+00	1.812789916992187500e+00	2.395944833755493164e+00
-2.440891718682364875e+00	-2.035812377929687500e+00	2.394609928131103516e+00
-2.419159544439393184e+00	-2.343200683593750000e+00	2.399597167968750000e+00
-2.397409190157191006e+00	1.282409667968750000e+00	2.410791158676147461e+00
-2.375640819290166128e+00	2.557495117187500000e+00	2.419717311859130859e+00
-2.353854595428124696e+00	2.901153564453125000e-01	2.414673089981079102e+00
-2.332050682295034871e+00	3.747085571289062500e+00	2.425609827041625977e+00
-2.310229243747802474e+00	7.672866821289062500e+00	2.434224367141723633e+00
-2.288390443775037753e+00	6.970245361328125000e+00	2.467169284820556641e+00
-2.266534446495819477e+00	9.919708251953125000e+00	2.485410928726196289e+00
-2.244661416158467038e+00	8.484039306640625000e+00	2.459617614746093750e+00
-2.222771517139303654e+00	6.510070800781250000e+00	2.468048095703125000e+00
-2.200864913941420475e+00	1.522366333007812500e+01	2.489411830902099609e+00
-2.178941771193439347e+00	1.605453491210937500e+01	2.505666971206665039e+00
-2.157002253648280021e+00	1.615510559082031250e+01	2.512274265289306641e+00
-2.135046526181918036e+00	2.667778015136718750e+01	2.508547782897949219e+00
-2.113074753792146154e+00	2.546858215332031250e+01	2.528496742248535156e+00
-2.091087101597337128e+00	2.745521545410156250e+01	2.556410551071166992e+00
-2.069083734835197141e+00	2.883897399902343750e+01	2.543486118316650391e+00
-2.047064818861531243e+00	3.004092407226562500e+01	2.570818901062011719e+00
-2.025030519148995456e+00	3.241780090332031250e+01	2.586671113967895508e+00
-2.002981001285856877e+00	3.018618774414062500e+01	2.640824317932128906e+00
-1.980916430974744458e+00	4.889054870605468750e+01	2.653446912765502930e+00
-1.958836974031407552e+00	4.839515686035156250e+01	2.639221191406250000e+00
-1.936742796383470466e+00	5.669378662109375000e+01	2.658222436904907227e+00
-1.914634064069183461e+00	6.312123107910156250e+01	2.626055240631103516e+00
-1.892510943236173304e+00	7.322677612304687500e+01	2.697371244430541992e+00
-1.870373600140198711e+00	7.458543395996093750e+01	2.713695287704467773e+00
-1.848222201143899124e+00	7.870225524902343750e+01	2.787519216537475586e+00
-1.826056912715544600e+00	7.990162658691406250e+01	2.802268743515014648e+00
-1.803877901427782371e+00	9.391812133789062500e+01	2.746314525604248047e+00
-1.781685333956389172e+00	8.984216308593750000e+01	2.747896194458007812e+00
-1.759479377079017359e+00	9.661984252929687500e+01	2.786185741424560547e+00
-1.737260197673940576e+00	9.343475341796875000e+01	2.770841836929321289e+00
-1.715027962718797427e+00	8.381472778320312500e+01	2.792316913604736328e+00
-1.692782839289342034e+00	1.028685913085937500e+02	2.820482015609741211e+00
-1.670524994558186371e+00	1.265599975585937500e+02	2.860807895660400391e+00
-1.648254595793541499e+00	1.229929199218750000e+02	2.873761415481567383e+00
-1.625971810357961900e+00	1.248693084716796875e+02	2.887818813323974609e+00
-1.603676805707089370e+00	1.278085784912109375e+02	2.882800340652465820e+00
-1.581369749388393142e+00	1.248975372314453125e+02	2.923889875411987305e+00
-1.559050809039912222e+00	1.322348632812500000e+02	2.902319192886352539e+00
-1.536720152388991512e+00	1.402397613525390625e+02	2.936089038848876953e+00
-1.514377947251025702e+00	1.391921081542968750e+02	2.947952747344970703e+00
-1.492024361528197618e+00	1.383039398193359375e+02	2.926292657852172852e+00
-1.469659563208215003e+00	1.429727325439453125e+02	2.971181154251098633e+00
-1.447283720363046422e+00	1.373227844238281250e+02	2.939927577972412109e+00
-1.424897001147662934e+00	1.337584381103515625e+02	2.965080738067626953e+00
-1.402499573798769994e+00	1.302771606445312500e+02	2.912659168243408203e+00
-1.380091606633546686e+00	1.200515289306640625e+02	2.919192552566528320e+00
-1.357673268048379178e+00	1.122390594482421875e+02	2.944858789443969727e+00
-1.335244726517590852e+00	1.098567962646484375e+02	2.927413702011108398e+00
-1.312806150592185084e+00	9.580841064453125000e+01	2.919408798217773438e+00
-1.290357708898573375e+00	9.762336730957031250e+01	2.907399415969848633e+00
-1.267899570137306808e+00	9.927674865722656250e+01	2.875819921493530273e+00
-1.245431903081811065e+00	9.655523681640625000e+01	2.833840608596801758e+00
-1.222954876577117433e+00	9.468395996093750000e+01	2.821656703948974609e+00
-1.200468659538593386e+00	9.037889099121093750e+01	2.829425096511840820e+00
-1.177973420950675143e+00	8.163841247558593750e+01	2.781766176223754883e+00
-1.155469329865591366e+00	7.211691284179687500e+01	2.785816907882690430e+00
-1.132956555402103049e+00	6.595495605468750000e+01	2.756970643997192383e+00
-1.110435266744223215e+00	6.283410644531250000e+01	2.731951951980590820e+00
-1.087905633139951922e+00	5.630073547363281250e+01	2.735255956649780273e+00
-1.065367823899998845e+00	4.362507629394531250e+01	2.678827524185180664e+00
-1.042822008396515621e+00	4.115945434570312500e+01	2.649743556976318359e+00
-1.020268356061820425e+00	3.549916076660156250e+01	2.621006727218627930e+00
-9.977070363871275438e-01	3.032121276855468750e+01	2.626716375350952148e+00
-9.751382189212666196e-01	2.503549194335937500e+01	2.581984281539916992e+00
-9.525620732694185522e-01	1.920715332031250000e+01	2.558814048767089844e+00
-9.299787690918326355e-01	1.632997131347656250e+01	2.544111490249633789e+00
-9.073884761025569068e-01	9.685501098632812500e+00	2.528149604797363281e+00
-8.847913640681569492e-01	1.447601318359375000e+01	2.512184381484985352e+00
-8.621876028064474617e-01	1.227186584472656250e+01	2.512112140655517578e+00
-8.395773621852100632e-01	1.236820983886718750e+01	2.520299673080444336e+00
-8.169608121209205320e-01	-2.597625732421875000e+00	2.531557798385620117e+00
-7.943381225774672760e-01	-3.621902465820312500e+00	2.536993741989135742e+00
-7.717094635648793499e-01	3.467483520507812500e+01	2.575382947921752930e+00
-7.490750051380470342e-01	4.619323730468750000e+01	2.605311393737792969e+00
-7.264349173954429695e-01	3.639801025390625000e+01	2.660109519958496094e+00
-7.037893704778416248e-01	-1.031794738769531250e+01	2.805058479309082031e+00
-6.811385345670458724e-01	-5.066860961914062500e+01	2.797228813171386719e+00
-6.584825798846059008e-01	-3.101002502441406250e+01	2.695795774459838867e+00
-6.358216766905377959e-01	9.487960815429687500e+00	2.574434280395507812e+00
-6.131559952820480053e-01	1.597682189941406250e+01	2.620551347732543945e+00
-5.904857059922479223e-01	1.847126770019531250e+01	2.665873050689697266e+00
-5.678109791888804603e-01	1.760169982910156250e+01	2.740874052047729492e+00
-5.451319852730349691e-01	1.811837768554687500e+01	2.816160678863525391e+00
-5.224488946778702569e-01	2.018423461914062500e+01	2.861168146133422852e+00
-4.997618778673285078e-01	2.466813659667968750e+01	2.925199031829833984e+00
-4.770711053348595798e-01	2.349993896484375000e+01	3.029435634613037109e+00
-4.543767476021373097e-01	2.575354003906250000e+01	3.106122732162475586e+00
-4.316789752177802031e-01	2.425091552734375000e+01	3.192169904708862305e+00
-4.089779587560632979e-01	2.082672119140625000e+01	3.276004552841186523e+00
-3.862738688156451827e-01	1.868215942382812500e+01	3.399893999099731445e+00
-3.635668760182804160e-01	1.808523559570312500e+01	3.510347843170166016e+00
-3.408571510075387168e-01	1.767236328125000000e+01	3.633050680160522461e+00
-3.181448644475218246e-01	1.090780639648437500e+01	3.824386119842529297e+00
-2.954301870215813586e-01	9.583801269531250000e+00	3.976550102233886719e+00
-2.727132894310378419e-01	6.826263427734375000e+00	4.199409008026123047e+00
-2.499943423938967291e-01	6.993103027343750000e+00	4.426146030426025391e+00
-2.272735166435611021e-01	5.731567382812500000e+00	4.738325595855712891e+00
-2.045509829275567459e-01	3.732971191406250000e+00	5.232925415039062500e+00
-1.818269120062442623e-01	4.644836425781250000e+00	5.864345550537109375e+00
-1.591014746515351241e-01	6.583837890625000000e+01	7.698415756225585938e+00
-1.363748416456100065e-01	2.071448364257812500e+02	1.425904750823974609e+01
-1.136471837796345363e-01	1.247600097656250000e+02	3.595939254760742188e+01
-9.091867185247763661e-02	0.000000000000000000e+00	0.000000000000000000e+00
-6.818947666942579144e-02	0.000000000000000000e+00	0.000000000000000000e+00
-4.545976904089817777e-02	0.000000000000000000e+00	0.000000000000000000e+00
-2.272971978116811523e-02	0.000000000000000000e+00	0.000000000000000000e+00
5.002929250554007833e-07	0.000000000000000000e+00	0.000000000000000000e+00
2.273072036325791273e-02	0.000000000000000000e+00	0.000000000000000000e+00
4.546076961170859160e-02	0.000000000000000000e+00	0.000000000000000000e+00
6.819047722143785351e-02	0.000000000000000000e+00	0.000000000000000000e+00
9.091967237817266678e-02	0.000000000000000000e+00	0.000000000000000000e+00
1.136481842714932716e-01	-5.800000000000000000e+01	4.282522583007812500e+01
1.363758420961122542e-01	-8.143975830078125000e+01	1.734004783630371094e+01
1.591024750531642717e-01	3.319244384765625000e+01	7.347768306732177734e+00
1.818279123514817130e-01	-6.628906250000000000e+00	5.338583469390869141e+00
2.045519832088856238e-01	-2.418579101562500000e+00	4.789626121520996094e+00
2.272745168534618665e-01	-3.448486328125000000e-02	4.439199447631835938e+00
2.499953425248547245e-01	7.634094238281250000e+00	4.176744461059570312e+00
2.727142894755376079e-01	9.822021484375000000e+00	3.985467910766601562e+00
2.954311869721065742e-01	9.048095703125000000e+00	3.831801891326904297e+00
3.181458642965570016e-01	1.591775512695312500e+01	3.624378919601440430e+00
3.408581507475713090e-01	1.915267944335937500e+01	3.533846378326416016e+00
3.635678756417973778e-01	2.139962768554687500e+01	3.408020496368408203e+00
3.862748683151343565e-01	2.636584472656250000e+01	3.285643815994262695e+00
4.089789581240118044e-01	2.536972045898437500e+01	3.179088592529296875e+00
4.316799744466792710e-01	2.359234619140625000e+01	3.082557439804077148e+00
4.543777466844782786e-01	2.279684448242187500e+01	3.031458616256713867e+00
4.770721042631331232e-01	2.088252258300781250e+01	2.921568632125854492e+00
4.997628766340272977e-01	1.790042114257812500e+01	2.822137594223022461e+00
5.224498932754891856e-01	1.682656860351562500e+01	2.792909860610961914e+00
5.451329836940702611e-01	1.715773010253906250e+01	2.694941997528076172e+00
5.678119774258276742e-01	1.489735412597656250e+01	2.655724048614501953e+00
5.904867040376055032e-01	9.154098510742187500e+00	2.632688045501708984e+00
6.131569931283158414e-01	1.548287963867187500e+01	2.558038711547851562e+00
6.358226743302184403e-01	1.434393310546875000e+01	2.496956348419189453e+00
6.584835773101999079e-01	7.586898803710937500e+00	2.474028825759887695e+00
6.811395317710580155e-01	3.325057983398437500e+00	2.433013677597045898e+00
7.037903674527781206e-01	2.960815429687500000e+00	2.430150508880615234e+00
7.264359141338122550e-01	1.042648315429687500e+00	2.449067354202270508e+00
7.490760016323588788e-01	2.460296630859375000e+00	2.413261651992797852e+00
7.717104598076434119e-01	5.102432250976562500e+00	2.428472757339477539e+00
7.943391185611973215e-01	8.934631347656250000e-01	2.428360223770141602e+00
8.169618078381319926e-01	5.992782592773437500e+00	2.437483549118041992e+00
8.395783576284214789e-01	9.502166748046875000e+00	2.434276819229125977e+00
8.621885979681763734e-01	1.202416992187500000e+01	2.463135242462158203e+00
8.847923589409245615e-01	1.306323242187500000e+01	2.471613407135009766e+00
9.073894706788865339e-01	1.818464660644531250e+01	2.483340740203857422e+00
9.299797633642518102e-01	2.196952819824218750e+01	2.504373311996459961e+00
9.525630672304543634e-01	2.861927795410156250e+01	2.532446861267089844e+00
9.751392125634484875e-01	2.730767822265625000e+01	2.558302164077758789e+00
9.977080297029877753e-01	3.408360290527343750e+01	2.585873603820800781e+00
1.020269349043897433e+00	3.915780639648437500e+01	2.593239784240722656e+00
1.042823001037344932e+00	4.330662536621093750e+01	2.607166290283203125e+00
1.065368816192120205e+00	4.858056640625000000e+01	2.622119665145874023e+00
1.087906625075909739e+00	5.683348083496093750e+01	2.664086103439331055e+00
1.110436258316562119e+00	6.940951538085937500e+01	2.705784082412719727e+00
1.132957546603371002e+00	7.310081481933593750e+01	2.677733421325683594e+00
1.155470320688339658e+00	7.513160705566406250e+01	2.722588539123535156e+00
1.177974411387458176e+00	8.335710144042968750e+01	2.727254390716552734e+00
1.200469649581969112e+00	9.349769592285156250e+01	2.743165254592895508e+00
1.222955866219644472e+00	1.017736663818359375e+02	2.760027885437011719e+00
1.245432892316051587e+00	1.040039825439453125e+02	2.782513856887817383e+00
1.267900558955826762e+00	1.096634063720703125e+02	2.792824506759643555e+00
1.290358697293942480e+00	1.108491210937500000e+02	2.801546812057495117e+00
1.312807138556975728e+00	1.094406585693359375e+02	2.777662038803100586e+00
1.335245714044377197e+00	1.129115600585937500e+02	2.783329010009765625e+00
1.357674255129740715e+00	1.068398590087890625e+02	2.773813247680664062e+00
1.380092593262067124e+00	1.104505462646484375e+02	2.770272254943847656e+00
1.402500559967032823e+00	1.238120117187500000e+02	2.810536384582519531e+00
1.424897986848256526e+00	1.212395629882812500e+02	2.830208301544189453e+00
1.447284705588564702e+00	1.231119079589843750e+02	2.830405473709106445e+00
1.469660547951253005e+00	1.237431640625000000e+02	2.824415206909179688e+00
1.492025345781357260e+00	1.199518737792968750e+02	2.798688173294067383e+00
1.514378931006908235e+00	1.206638183593750000e+02	2.815213680267333984e+00
1.536721135640202407e+00	1.272061004638671875e+02	2.793066978454589844e+00
1.559051791779065166e+00	1.236731262207031250e+02	2.818215608596801758e+00
1.581370731608101599e+00	1.180097045898437500e+02	2.787046909332275391e+00
1.603677787399972576e+00	1.148324432373046875e+02	2.781289100646972656e+00
1.625972791516640203e+00	1.128772735595703125e+02	2.802209138870239258e+00
1.648255576410644352e+00	1.077149047851562500e+02	2.752822399139404297e+00
1.670525974626343890e+00	1.007426300048828125e+02	2.750890731811523438e+00
1.692783818801189222e+00	9.802433776855468750e+01	2.745298862457275391e+00
1.715028941666970841e+00	9.142364501953125000e+01	2.705707073211669922e+00
1.737261176051085432e+00	9.115672302246093750e+01	2.709893703460693359e+00
1.759480354877780650e+00	8.620492553710937500e+01	2.695130825042724609e+00
1.781686311169422332e+00	8.512794494628906250e+01	2.647864341735839844e+00
1.803878878047742385e+00	7.688769531250000000e+01	2.639649391174316406e+00
1.826057888735091339e+00	6.699667358398437500e+01	2.630316734313964844e+00
1.848223176555697567e+00	6.809985351562500000e+01	2.600419282913208008e+00
1.870374574936920942e+00	6.624714660644531250e+01	2.609503269195556641e+00
1.892511917410490518e+00	5.950917053222656250e+01	2.578920602798461914e+00
1.914635037613777291e+00	5.030644226074218750e+01	2.565892696380615234e+00
1.936743769291024098e+00	4.346533203125000000e+01	2.534489631652832031e+00
1.958837946294608390e+00	4.097480773925781250e+01	2.524319171905517578e+00
1.980917402586287457e+00	3.798477172851562500e+01	2.519737720489501953e+00
2.002981972238438768e+00	3.575120544433593750e+01	2.511196136474609375e+00
2.025031489435320076e+00	3.612512207031250000e+01	2.505872964859008789e+00
2.047065788474307091e+00	2.894145202636718750e+01	2.479877710342407227e+00
2.069084703767137601e+00	2.593043518066406250e+01	2.470512151718139648e+00
2.091088069841160468e+00	2.346598815917968750e+01	2.423356294631958008e+00
2.113075721340576418e+00	2.090242004394531250e+01	2.419493675231933594e+00
2.135047493027682819e+00	2.184928894042968750e+01	2.419338226318359375e+00
2.157003219784115799e+00	1.620503234863281250e+01	2.413728475570678711e+00
2.178942736612083486e+00	1.819551086425781250e+01	2.409902572631835938e+00
2.200865878635618778e+00	1.415997314453125000e+01	2.388803482055664062e+00
2.222772481101805919e+00	9.772872924804687500e+00	2.379981040954589844e+00
2.244662379382028838e+00	9.798721313476562500e+00	2.377615213394165039e+00
2.266535408973203491e+00	7.782104492187500000e+00	2.363429546356201172e+00
2.288391405499009768e+00	3.810958862304687500e+00	2.340061902999877930e+00
2.310230204711135382e+00	4.589309692382812500e+00	2.348758220672607422e+00
2.332051642490507781e+00	3.000503540039062500e+00	2.347417354583740234e+00
2.353855554848519827e+00	5.415344238281250000e-01	2.340924263000488281e+00
2.375641777928275911e+00	3.257858276367187500e+00	2.340576887130737305e+00
2.397410148005809649e+00	2.598648071289062500e+00	2.326255083084106445e+00
2.419160501491322002e+00	1.735412597656250000e+00	2.316393613815307617e+00
2.440892674930412731e+00	1.231719970703125000e+00	2.285638570785522461e+00
2.462606505005299429e+00	1.146163940429687500e+00	2.303415775299072266e+00
2.484301828536053858e+00	5.884140014648437500e+00	2.332316160202026367e+00
2.505978482481826752e+00	1.559204101562500000e+00	2.299630165100097656e+00
2.527636303942062845e+00	4.658050537109375000e-01	2.303851604461669922e+00
2.549275130157745650e+00	-3.051559448242187500e+00	2.305567264556884766e+00
2.570894798512596946e+00	3.290954589843750000e+00	2.296299457550048828e+00
2.592495146534316675e+00	6.511764526367187500e+00	2.311734199523925781e+00
2.614076011895798857e+00	3.906433105468750000e+00	2.288680791854858398e+00
2.635637232416343068e+00	1.206100463867187500e+00	2.288078546524047852e+00
2.657178646062886340e+00	1.227279663085937500e+00	2.276890277862548828e+00
2.678700090951215085e+00	5.612014770507812500e+00	2.282028913497924805e+00
2.700201405347177008e+00	9.951095581054687500e+00	2.277299880981445312e+00
2.721682427667905024e+00	2.764144897460937500e+00	2.267308950424194336e+00
2.743142996483022955e+00	3.226318359375000000e+00	2.278236627578735352e+00
2.764582950515868109e+00	2.301559448242187500e+00	2.274047374725341797e+00
2.786002128644697873e+00	4.358245849609375000e+00	2.262567281723022461e+00
2.807400369903895410e+00	8.951507568359375000e+00	2.259814262390136719e+00
2.828777513485191353e+00	8.966415405273437500e+00	2.239296674728393555e+00
2.850133398738864621e+00	2.380477905273437500e+00	2.272056341171264648e+00
2.871467865174947232e+00	9.142852783203125000e+00	2.240774631500244141e+00
2.892780752464437555e+00	1.049430847167968750e+01	2.254089832305908203e+00
2.914071900440499352e+00	5.566314697265625000e+00	2.237938404083251953e+00
2.935341149099671476e+00	4.004714965820312500e+00	2.224314689636230469e+00
2.956588338603065136e+00	2.953002929687500000e+00	2.223439693450927734e+00
2.977813309277562492e+00	1.562789916992187500e+00	2.220865726470947266e+00
2.999015901617029023e+00	5.044509887695312500e+00	2.220064163208007812e+00
3.020195956283493466e+00	1.960632324218750000e+00	2.237145900726318359e+00
3.041353314108365069e+00	4.208419799804687500e+00	2.230179309844970703e+00
3.062487816093615312e+00	4.018692016601562500e+00	2.221149206161499023e+00
3.083599303412978720e+00	3.432785034179687500e+00	2.224071025848388672e+00
3.104687617413144807e+00	6.181167602539062500e+00	2.189399957656860352e+00
3.125752599614958882e+00	6.314468383789062500e+00	2.189174175262451172e+00
3.146794091714587793e+00	3.547119140625000000e+00	2.205700397491455078e+00
3.167811935584747385e+00	1.029891967773437500e+00	2.192925930023193359e+00
3.188805973275854910e+00	4.805587768554687500e+00	2.192973136901855469e+00
3.209776047017238731e+00	-8.396301269531250000e-01	2.202611684799194336e+00
3.230721999218318707e+00	3.274337768554687500e+00	2.191707134246826172e+00
3.251643672469782143e+00	2.376632690429687500e+00	2.172080755233764648e+00
3.272540909544777943e+00	5.651473999023437500e+00	2.202493667602539062e+00
3.293413553400094784e+00	3.584442138671875000e+00	2.182615280151367188e+00
3.314261447177333952e+00	1.669891357421875000e+00	2.163296699523925781e+00
3.335084434204098613e+00	-1.874328613281250000e+00	2.173612117767333984e+00
3.355882357995163545e+00	4.026733398437500000e+00	2.151715755462646484e+00
3.376655062253659079e+00	-1.401367187500000000e-01	2.137697935104370117e+00
3.397402390872239497e+00	2.445373535156250000e-01	2.172331094741821289e+00
3.418124187934251879e+00	5.304267883300781250e+00	2.151369571685791016e+00
3.438820297714921370e+00	-2.495727539062500000e-01	2.147563219070434570e+00
3.459490564682511149e+00	-1.092529296875000000e+00	2.171322107315063477e+00
3.480134833499489488e+00	2.982940673828125000e-01	2.154152154922485352e+00
3.500752949023708371e+00	4.584350585937500000e-01	2.162406921386718750e+00
3.521344756309554569e+00	1.560142517089843750e+00	2.134889364242553711e+00
3.541910100609128698e+00	-4.785156250000000000e-01	2.129558324813842773e+00
3.562448827373399407e+00	1.791824340820312500e+00	2.175949811935424805e+00
3.582960782253362453e+00	1.465011596679687500e+00	2.149543762207031250e+00
3.603445811101212648e+00	2.402519226074218750e+00	2.118705987930297852e+00
3.623903759971486505e+00	-3.029701232910156250e+00	2.119390726089477539e+00
3.644334475122232853e+00	-1.572563171386718750e+00	2.151991128921508789e+00
3.664737803016163031e+00	1.996612548828125000e-01	2.160221815109252930e+00
3.685113590321796639e+00	1.462593078613281250e+00	2.153945207595825195e+00
3.705461683914629489e+00	5.709480285644531250e+00	2.093046426773071289e+00
3.725781930878277581e+00	3.566520690917968750e+00	2.118554830551147461e+00
3.746074178505612640e+00	2.825523376464843750e+00	2.130143642425537109e+00
3.766338274299935396e+00	1.430030822753906250e+00	2.161210060119628906e+00
3.786574065976100911e+00	6.974296569824218750e+00	2.191617727279663086e+00
3.806781401461674985e+00	1.920677185058593750e+00	2.119482278823852539e+00
3.826960128898070135e+00	3.758255004882812500e+00	2.091588973999023438e+00
3.847110096641685129e+00	2.107788085937500000e+00	2.100402116775512695e+00
3.867231153265053845e+00	-1.525253295898437500e+00	2.122878551483154297e+00
3.887323147557979031e+00	-2.790443420410156250e+00	2.125353574752807617e+00
3.907385928528661179e+00	-4.749298095703125000e-01	2.133897781372070312e+00
3.927419345404844275e+00	-1.130729675292968750e+00	2.107992887496948242e+00
3.947423247634942012e+00	4.238586425781250000e-01	2.128760099411010742e+00
3.967397484889174208e+00	2.394294738769531250e+00	2.121372461318969727e+00
3.987341907060690360e+00	1.853340148925781250e+00	2.124849319458007812e+00
4.007256364266701176e+00	1.897735595703125000e-01	2.098202466964721680e+00
4.027140706849607454e+00	2.032798767089843750e+00	2.093007326126098633e+00
4.046994785378121406e+00	-1.205192565917968750e+00	2.090497016906738281e+00
4.066818450648387540e+00	-2.829635620117187500e+00	2.097529172897338867e+00
4.086611553685110643e+00	2.283554077148437500e-01	2.093023777008056641e+00
4.106373945742666010e+00	-1.501235961914062500e+00	2.092185735702514648e+00
4.126105478306227425e+00	2.862869262695312500e+00	2.096095800399780273e+00
4.145806003092879166e+00	1.604812622070312500e+00	2.113129138946533203e+00
4.165475372052725334e+00	4.551391601562500000e-01	2.088380336761474609e+00
4.185113437370008960e+00	-1.287612915039062500e-01	2.067044973373413086e+00
4.204720051464222230e+00	-2.346427917480468750e+00	2.065986394882202148e+00
4.224295066991207825e+00	-1.298210144042968750e+00	2.082684278488159180e+00
4.243838336844284242e+00	-2.217712402343750000e-01	2.085730552673339844e+00
4.263349714155326708e+00	8.977279663085937500e-01	2.071700572967529297e+00
4.282829052295890726e+00	-1.682121276855468750e+00	2.084495306015014648e+00
4.302276204878307198e+00	1.178550720214843750e+00	2.096139669418334961e+00
4.321691025756774884e+00	5.587539672851562500e-01	2.093121051788330078e+00
4.341073369028478623e+00	-2.435188293457031250e+00	2.039438009262084961e+00
4.360423089034657806e+00	3.818077087402343750e+00	2.019934654235839844e+00
4.379740040361731701e+00	-3.409095764160156250e+00	2.020286798477172852e+00
4.399024077842367930e+00	1.920013427734375000e+00	2.068253755569458008e+00
4.418275056556582037e+00	7.610778808593750000e-01	2.111989974975585938e+00
4.437492831832830831e+00	2.603019714355468750e+00	2.079830169677734375e+00
4.456677259249094192e+00	1.250061035156250000e+00	2.034058570861816406e+00
4.475828194633963975e+00	4.078369140625000000e+00	2.021378040313720703e+00
4.494945494067719594e+00	-5.818939208984375000e-02	2.030725717544555664e+00
4.514029013883421371e+00	4.274841308593750000e+00	2.048028230667114258e+00
4.533078610667981678e+00	2.094093322753906250e+00	2.047738790512084961e+00
4.552094141263245852e+00	2.583206176757812500e+00	2.026599407196044922e+00
4.571075462767066000e+00	7.726387023925781250e+00	2.040074110031127930e+00
4.590022432534379249e+00	1.899589538574218750e+00	2.032166242599487305e+00
4.608934908178274448e+00	3.397071838378906250e+00	2.016247034072875977e+00
4.627812747571061536e+00	4.004867553710937500e+00	2.026931524276733398e+00
4.646655808845352453e+00	1.562866210937500000e+00	2.012891769409179688e+00
4.665463950395107418e+00	6.628089904785156250e+00	1.988665103912353516e+00
4.684237030876713170e+00	8.541625976562500000e+00	1.970331549644470215e+00
4.702974909210045240e+00	2.836502075195312500e+00	1.999907374382019043e+00
4.721677444579512439e+00	1.982162475585937500e+00	2.014851570129394531e+00
4.740344496435141330e+00	-9.902191162109375000e-02	2.009141683578491211e+00
4.758975924493607401e+00	4.035232543945312500e+00	1.988685011863708496e+00
4.777571588739305319e+00	-5.862731933593750000e-01	2.000870704650878906e+00
4.796131349425390766e+00	-1.360687255859375000e+00	2.003309965133666992e+00
4.814655067074840034e+00	-8.794555664062500000e-01	1.982594490051269531e+00
4.833142602481489192e+00	-4.949645996093750000e-01	1.965752959251403809e+00
4.851593816711093687e+00	-2.648918151855468750e+00	1.974768519401550293e+00
4.870008571102351524e+00	6.066589355468750000e-01	1.988984346389770508e+00
4.888386727267965526e+00	2.161132812500000000e+00	1.975543737411499023e+00
4.906728147095670067e+00	-7.511825561523437500e-01	1.984561085700988770e+00
4.925032692749278240e+00	-1.731918334960937500e+00	1.988883376121520996e+00
4.943300226669711250e+00	3.604034423828125000e+00	1.964271903038024902e+00
4.961530611576031369e+00	8.750457763671875000e-01	1.969410181045532227e+00
4.979723710466484654e+00	-6.340026855468750000e-03	1.964486122131347656e+00
4.997879386619515252e+00	5.349655151367187500e-01	1.964980244636535645e+00
5.015997503594799234e+00	1.366287231445312500e+00	1.963876843452453613e+00
5.034077925234278439e+00	-3.913879394531250000e-03	1.959929227828979492e+00
5.052120515663168554e+00	-3.695915222167968750e+00	1.957695722579956055e+00
5.070125139290989402e+00	2.161460876464843750e+00	1.946899294853210449e+00
5.088091660812586348e+00	1.368415832519531250e+00	1.954571604728698730e+00
5.106019945209137489e+00	-1.862129211425781250e+00	1.969773769378662109e+00
5.123909857749178620e+00	-9.206695556640625000e-01	1.956272602081298828e+00
5.141761263989605979e+00	1.150764465332031250e+00	1.939929723739624023e+00
5.159574029776693216e+00	-1.839820861816406250e+00	1.939897060394287109e+00
5.177348021247101251e+00	-2.011878967285156250e+00	1.942942261695861816e+00
5.195083104828875697e+00	-1.102745056152343750e+00	1.948908329010009766e+00
5.212779147242459388e+00	1.657196044921875000e+00	1.935214757919311523e+00
5.230436015501691571e+00	1.016265869140625000e+00	1.918081402778625488e+00
5.248053576914800900e+00	-1.476364135742187500e+00	1.945971131324768066e+00
5.265631699085409956e+00	-2.053474426269531250e+00	1.940984368324279785e+00
5.283170249913534455e+00	2.938766479492187500e+00	1.928396344184875488e+00
5.300669097596559354e+00	-1.468109130859375000e+00	1.927472472190856934e+00
5.318128110630246930e+00	-2.322959899902343750e+00	1.900963544845581055e+00
5.335547157809714669e+00	-2.645545959472656250e+00	1.928898692131042480e+00
5.352926108230426472e+00	-1.932846069335937500e+00	1.910120725631713867e+00
5.370264831289172314e+00	-1.578399658203125000e+00	1.913338780403137207e+00
5.387563196685049682e+00	-1.142578125000000000e+00	1.905135154724121094e+00
5.404821074420451232e+00	1.697097778320312500e+00	1.915052533149719238e+00
5.422038334802028459e+00	-2.125457763671875000e+00	1.903447985649108887e+00
5.439214848441679351e+00	-1.458892822265625000e+00	1.895629405975341797e+00
5.456350486257512067e+00	-2.269409179687500000e+00	1.912540316581726074e+00
5.473445119474812159e+00	-2.653755187988281250e+00	1.924727439880371094e+00
5.490498619627024013e+00	1.468864440917968750e+00	1.890930891036987305e+00
5.507510858556706523e+00	-1.035461425781250000e-01	1.891000151634216309e+00
5.524481708416492332e+00	3.784713745117187500e-01	1.894589900970458984e+00
5.541411041670059490e+00	8.787536621093750000e-01	1.894299268722534180e+00
5.558298731093077372e+00	1.437606811523437500e+00	1.894479155540466309e+00
5.575144649774178340e+00	1.831237792968750000e+00	1.877909660339355469e+00
5.591948671115898328e+00	1.983253479003906250e+00	1.894515872001647949e+00
5.608710668835632518e+00	-7.231063842773437500e-01	1.877578258514404297e+00
5.625430516966583916e+00	-1.042152404785156250e+00	1.864918828010559082e+00
5.642108089858714592e+00	1.095916748046875000e+00	1.883754134178161621e+00
5.658743262179680933e+00	-2.287292480468750000e-02	1.869110226631164551e+00
5.675335908915784877e+00	4.191513061523437500e-01	1.864959955215454102e+00
5.691885905372906507e+00	1.955009460449218750e+00	1.845151901245117188e+00
5.708393127177443738e+00	-1.553779602050781250e+00	1.880215048789978027e+00
5.724857450277248461e+00	-2.890106201171875000e+00	1.865745425224304199e+00
5.741278750942555575e+00	1.291526794433593750e+00	1.860710501670837402e+00
5.757656905766917355e+00	-1.977264404296875000e+00	1.845995068550109863e+00
5.773991791668123597e+00	-8.842010498046875000e-01	1.855385899543762207e+00
5.790283285889137765e+00	-2.538223266601562500e+00	1.871598601341247559e+00
5.806531265999004709e+00	-2.509475708007812500e+00	1.841709375381469727e+00
5.822735609893783248e+00	-1.459808349609375000e-01	1.841032266616821289e+00
5.838896195797460997e+00	-7.118911743164062500e-01	1.857682585716247559e+00
5.855012902262862973e+00	-3.189262390136718750e+00	1.740624904632568359e+00
