-5.855012193772748397e+00	9.930180358886718750e+01	1.240444421768188477e+00
-5.838895485373103433e+00	9.811268615722656250e+01	1.313882827758789062e+00
-5.822734897540524202e+00	9.969872283935546875e+01	1.317264556884765625e+00
-5.806530551722195455e+00	9.930915832519531250e+01	1.306555151939392090e+00
-5.790282569694146453e+00	1.006688537597656250e+02	1.320929050445556641e+00
-5.773991073560334364e+00	9.901815795898437500e+01	1.307419419288635254e+00
-5.757656185751725886e+00	1.017736892700195312e+02	1.316215634346008301e+00
-5.741278029025372653e+00	1.014076995849609375e+02	1.311662793159484863e+00
-5.724856726463499079e+00	1.005488052368164062e+02	1.309317231178283691e+00
-5.708392401472565325e+00	1.000039062500000000e+02	1.309375047683715820e+00
-5.691885177782355143e+00	1.005800933837890625e+02	1.321148991584777832e+00
-5.675335179445029077e+00	1.023959121704101562e+02	1.324282050132751465e+00
-5.658742530834201645e+00	1.013410873413085938e+02	1.303937315940856934e+00
-5.642107356644006977e+00	1.010742263793945312e+02	1.304430842399597168e+00
-5.625429781888160008e+00	9.803742218017578125e+01	1.283976197242736816e+00
-5.608709931899014123e+00	9.910578155517578125e+01	1.286576628684997559e+00
-5.591947932326625903e+00	1.006751937866210938e+02	1.305389285087585449e+00
-5.575143909137801224e+00	1.012404861450195312e+02	1.312575936317443848e+00
-5.558297988615162666e+00	9.790991973876953125e+01	1.284426450729370117e+00
-5.541410297356186732e+00	9.971507263183593750e+01	1.305197834968566895e+00
-5.524480962272257045e+00	1.037522430419921875e+02	1.330655097961425781e+00
-5.507510110587715779e+00	1.020849533081054688e+02	1.318361043930053711e+00
-5.490497869838899092e+00	1.009085464477539062e+02	1.309675335884094238e+00
-5.473444367873184113e+00	1.010690155029296875e+02	1.306473851203918457e+00
-5.456349732848029710e+00	1.013033065795898438e+02	1.314890265464782715e+00
-5.439214093230007485e+00	1.010404129028320312e+02	1.306801080703735352e+00
-5.422037577793840768e+00	1.017786483764648438e+02	1.313985109329223633e+00
-5.404820315621435611e+00	1.025179748535156250e+02	1.321949481964111328e+00
-5.387562436100910901e+00	9.991645050048828125e+01	1.295377969741821289e+00
-5.370264068925624024e+00	1.018146667480468750e+02	1.314055085182189941e+00
-5.352925344093200977e+00	1.013963241577148438e+02	1.304816961288452148e+00
-5.335546391904553154e+00	1.008611373901367188e+02	1.307491064071655273e+00
-5.318127342962905679e+00	1.029607467651367188e+02	1.318691730499267578e+00
-5.300668328172805310e+00	1.018361816406250000e+02	1.309792876243591309e+00
-5.283169478739149660e+00	1.034521713256835938e+02	1.322827219963073730e+00
-5.265630926166193326e+00	1.038842163085937500e+02	1.327149748802185059e+00
-5.248052802256557570e+00	1.021688690185546875e+02	1.311212420463562012e+00
-5.230435239110243550e+00	1.023133773803710938e+02	1.312875866889953613e+00
-5.212778369123642896e+00	1.041897354125976562e+02	1.326820969581604004e+00
-5.195082324988536726e+00	1.038520050048828125e+02	1.324995279312133789e+00
-5.177347239691101777e+00	1.019942550659179688e+02	1.312900662422180176e+00
-5.159573246510904987e+00	1.040768432617187500e+02	1.326692581176757812e+00
-5.141760479019915842e+00	1.030283203125000000e+02	1.319224596023559570e+00
-5.123909071081486744e+00	1.029587936401367188e+02	1.314016580581665039e+00
-5.106019156849355589e+00	1.055685424804687500e+02	1.319476366043090820e+00
-5.088090870766639462e+00	1.017299728393554688e+02	1.295841097831726074e+00
-5.070124347564812339e+00	1.061833648681640625e+02	1.342252612113952637e+00
-5.052119722262711221e+00	1.068196105957031250e+02	1.346681833267211914e+00
-5.034077130165503178e+00	1.038981018066406250e+02	1.330219149589538574e+00
-5.015996706863684373e+00	1.027944641113281250e+02	1.313161849975585938e+00
-4.997878588232044450e+00	1.064898147583007812e+02	1.346555829048156738e+00
-4.979722910428660221e+00	1.067152633666992188e+02	1.342188954353332520e+00
-4.961529809893866272e+00	1.029313049316406250e+02	1.315634965896606445e+00
-4.943299423349228228e+00	1.018326721191406250e+02	1.309881210327148438e+00
-4.925031887796514241e+00	1.077165298461914062e+02	1.350178599357604980e+00
-4.906727340516675362e+00	1.050095214843750000e+02	1.323699235916137695e+00
-4.888385919068799268e+00	1.048118820190429688e+02	1.312943100929260254e+00
-4.870007761289090631e+00	1.010507736206054688e+02	1.274366497993469238e+00
-4.851593005289823957e+00	1.054915161132812500e+02	1.299050092697143555e+00
-4.833141789458307969e+00	1.064457931518554688e+02	1.298489451408386230e+00
-4.814654252455853545e+00	1.058238449096679688e+02	1.292698025703430176e+00
-4.796130533216723002e+00	1.049451370239257812e+02	1.294630646705627441e+00
-4.777570770947090928e+00	1.050625305175781250e+02	1.307576894760131836e+00
-4.758975105123992577e+00	1.041494140625000000e+02	1.310507059097290039e+00
-4.740343675494282927e+00	1.048738021850585938e+02	1.319500923156738281e+00
-4.721676622073581520e+00	1.062907867431640625e+02	1.341533184051513672e+00
-4.702974085145218197e+00	1.051209945678710938e+02	1.336319565773010254e+00
-4.684236205259187713e+00	1.063962097167968750e+02	1.343466997146606445e+00
-4.665463123231085696e+00	1.061339340209960938e+02	1.336381673812866211e+00
-4.646654980141050828e+00	1.051142349243164062e+02	1.332721590995788574e+00
-4.627811917332707914e+00	1.075448608398437500e+02	1.353998303413391113e+00
-4.608934076412107395e+00	1.081603698730468750e+02	1.346181750297546387e+00
-4.590021599246650652e+00	1.068726577758789062e+02	1.346787810325622559e+00
-4.571074627964039294e+00	1.095471725463867188e+02	1.363265275955200195e+00
-4.552093304951192465e+00	1.086253280639648438e+02	1.353381991386413574e+00
-4.533077772853186360e+00	1.089552917480468750e+02	1.346366882324218750e+00
-4.514028174572182195e+00	1.088659820556640625e+02	1.341782212257385254e+00
-4.494944653266342627e+00	1.115148391723632812e+02	1.372398257255554199e+00
-4.475827352348767718e+00	1.105483322143554688e+02	1.366064667701721191e+00
-4.456676415486409581e+00	1.091889877319335938e+02	1.353582739830017090e+00
-4.437491986598998572e+00	1.115826950073242188e+02	1.376067280769348145e+00
-4.418274209857953494e+00	1.109332656860351562e+02	1.365410566329956055e+00
-4.399023229685305125e+00	1.101353683471679688e+02	1.355360984802246094e+00
-4.379739190752609979e+00	1.132797470092773438e+02	1.385338783264160156e+00
-4.360422237979861393e+00	1.086520690917968750e+02	1.349040865898132324e+00
-4.341072516534401515e+00	1.136759109497070312e+02	1.386114597320556641e+00
-4.321690171829828842e+00	1.128216781616210938e+02	1.379579305648803711e+00
-4.302275349524903980e+00	1.130884857177734375e+02	1.383965492248535156e+00
-4.282828195522461634e+00	1.118467407226562500e+02	1.371037721633911133e+00
-4.263348855968309259e+00	1.152536468505859375e+02	1.406431436538696289e+00
-4.243837477250128387e+00	1.126816635131835938e+02	1.375092267990112305e+00
-4.224294205996373286e+00	1.149185867309570312e+02	1.392924427986145020e+00
-4.204719189075175834e+00	1.123082199096679688e+02	1.372634649276733398e+00
-4.185112573593236185e+00	1.144404067993164062e+02	1.396634697914123535e+00
-4.165474506894716100e+00	1.162718505859375000e+02	1.406436443328857422e+00
-4.145805136560135828e+00	1.158098678588867188e+02	1.396017432212829590e+00
-4.126104610405261219e+00	1.157162017822265625e+02	1.400612473487854004e+00
-4.106373076479997941e+00	1.171030349731445312e+02	1.404315233230590820e+00
-4.086610683067273264e+00	1.177507019042968750e+02	1.412990689277648926e+00
-4.066817578681926726e+00	1.187367172241210938e+02	1.419362306594848633e+00
-4.046993912069588362e+00	1.182553787231445312e+02	1.412091732025146484e+00
-4.027139832205565817e+00	1.215988616943359375e+02	1.443139314651489258e+00
-4.007255488293720802e+00	1.228792114257812500e+02	1.439534664154052734e+00
-3.987341029765355316e+00	1.193890304565429688e+02	1.414768934249877930e+00
-3.967396606278079219e+00	1.222126388549804688e+02	1.439519524574279785e+00
-3.947422367714689795e+00	1.224553070068359375e+02	1.433213710784912109e+00
-3.927418464182045543e+00	1.255858764648437500e+02	1.461461782455444336e+00
-3.907385046009939966e+00	1.233206939697265625e+02	1.444379448890686035e+00
-3.887322263749966922e+00	1.245370025634765625e+02	1.454053759574890137e+00
-3.867230268174394858e+00	1.217059249877929688e+02	1.444043636322021484e+00
-3.847109210275026836e+00	1.243494186401367188e+02	1.466861128807067871e+00
-3.826959241262075206e+00	1.249883499145507812e+02	1.459966659545898438e+00
-3.806780512563014973e+00	1.229776840209960938e+02	1.445544600486755371e+00
-3.786573175821455806e+00	1.264445724487304688e+02	1.468611240386962891e+00
-3.766337382895992736e+00	1.244099044799804688e+02	1.450384855270385742e+00
-3.746073285859072399e+00	1.264253311157226562e+02	1.480353951454162598e+00
-3.725781036995847728e+00	1.263222961425781250e+02	1.482206821441650391e+00
-3.705460788803030425e+00	1.270225143432617188e+02	1.482566595077514648e+00
-3.685112693987751875e+00	1.268760604858398438e+02	1.482287764549255371e+00
-3.664736905466409400e+00	1.243779983520507812e+02	1.465691924095153809e+00
-3.644333576363516958e+00	1.253473815917968750e+02	1.479899525642395020e+00
-3.623902860010561167e+00	1.265799484252929688e+02	1.488653898239135742e+00
-3.603444909944839569e+00	1.275006866455078125e+02	1.482545375823974609e+00
-3.582959879908316658e+00	1.287594757080078125e+02	1.481032252311706543e+00
-3.562447923846459474e+00	1.258681945800781250e+02	1.466020703315734863e+00
-3.541909195907086971e+00	1.287689056396484375e+02	1.485079050064086914e+00
-3.521343850439208722e+00	1.283298187255859375e+02	1.484075546264648438e+00
-3.500752041991865404e+00	1.315954589843750000e+02	1.519257783889770508e+00
-3.480133925312967946e+00	1.329942474365234375e+02	1.516159892082214355e+00
-3.459489655348133574e+00	1.309663085937500000e+02	1.496884942054748535e+00
-3.438819387239524072e+00	1.282274322509765625e+02	1.477535009384155273e+00
-3.418123276324674720e+00	1.301306762695312500e+02	1.502471208572387695e+00
-3.397401478135333441e+00	1.306630859375000000e+02	1.495749592781066895e+00
-3.376654148396284860e+00	1.291295166015625000e+02	1.493718147277832031e+00
-3.355881443024186783e+00	1.343820495605468750e+02	1.530016183853149414e+00
-3.335083518126396029e+00	1.328335876464843750e+02	1.506949067115783691e+00
-3.314260529999791149e+00	1.316735382080078125e+02	1.515005707740783691e+00
-3.293412635129604027e+00	1.319795074462890625e+02	1.503894209861755371e+00
-3.272539990188241266e+00	1.342495117187500000e+02	1.532003879547119141e+00
-3.251642752034106021e+00	1.327534027099609375e+02	1.524364829063415527e+00
-3.230721077710420719e+00	1.364004516601562500e+02	1.544375538825988770e+00
-3.209775124444044891e+00	1.387208099365234375e+02	1.552701592445373535e+00
-3.188805049644297007e+00	1.396349945068359375e+02	1.561709761619567871e+00
-3.167811010901766977e+00	1.377965087890625000e+02	1.553300738334655762e+00
-3.146793165987136653e+00	1.366962432861328125e+02	1.530165672302246094e+00
-3.125751672849988338e+00	1.392272644042968750e+02	1.556318759918212891e+00
-3.104686689617626172e+00	1.366076202392578125e+02	1.539281368255615234e+00
-3.083598374593879310e+00	1.381071472167968750e+02	1.554677724838256836e+00
-3.062486886257916652e+00	1.401335449218750000e+02	1.575002312660217285e+00
-3.041352383263055348e+00	1.391868591308593750e+02	1.564834356307983398e+00
-3.020195024435567976e+00	1.389906311035156250e+02	1.562915444374084473e+00
-2.999014968773489720e+00	1.404114532470703125e+02	1.575041055679321289e+00
-2.977812375445421544e+00	1.410369720458984375e+02	1.561929821968078613e+00
-2.956587403789338264e+00	1.430867462158203125e+02	1.590920686721801758e+00
-2.935340213311385948e+00	1.420572662353515625e+02	1.584081172943115234e+00
-2.914070963684685989e+00	1.438186492919921875e+02	1.594809770584106445e+00
-2.892779814748135614e+00	1.458313598632812500e+02	1.603584289550781250e+00
-2.871466926505204853e+00	1.461797637939453125e+02	1.583770632743835449e+00
-2.850132459122735717e+00	1.492992858886718750e+02	1.619279980659484863e+00
-2.828776572929738276e+00	1.472477874755859375e+02	1.589922666549682617e+00
-2.807399428416185838e+00	1.492874908447265625e+02	1.624811291694641113e+00
-2.786001186231804816e+00	1.404788665771484375e+02	1.557923436164855957e+00
-2.764582007184877455e+00	1.413455963134765625e+02	1.590199708938598633e+00
-2.743142052241021922e+00	1.445104980468750000e+02	1.587981104850769043e+00
-2.721681482521987938e+00	1.473660583496093750e+02	1.623229980468750000e+00
-2.700200459304449740e+00	1.515262603759765625e+02	1.630451083183288574e+00
-2.678699144018785727e+00	1.500137023925781250e+02	1.644896388053894043e+00
-2.657177698247871866e+00	1.489111480712890625e+02	1.629778265953063965e+00
-2.635636283725864892e+00	1.484502868652343750e+02	1.631541848182678223e+00
-2.614075062336986832e+00	1.521222534179687500e+02	1.655797481536865234e+00
-2.592494196114308647e+00	1.540177764892578125e+02	1.652618646621704102e+00
-2.570893847238532981e+00	1.529378509521484375e+02	1.675050973892211914e+00
-2.549274178036774696e+00	1.505353698730468750e+02	1.641034007072448730e+00
-2.527635350981342288e+00	1.537543792724609375e+02	1.653576850891113281e+00
-2.505977528688514866e+00	1.546665954589843750e+02	1.661565899848937988e+00
-2.484300873917322239e+00	1.552062988281250000e+02	1.664056897163391113e+00
-2.462605549568318786e+00	1.530034179687500000e+02	1.655011892318725586e+00
-2.440891718682364875e+00	1.570049591064453125e+02	1.679772973060607910e+00
-2.419159544439393184e+00	1.602832031250000000e+02	1.698270678520202637e+00
-2.397409190157191006e+00	1.600147552490234375e+02	1.697657465934753418e+00
-2.375640819290166128e+00	1.587645721435546875e+02	1.703589677810668945e+00
-2.353854595428124696e+00	1.594668273925781250e+02	1.709939599037170410e+00
-2.332050682295034871e+00	1.601755676269531250e+02	1.701127529144287109e+00
-2.310229243747802474e+00	1.594482421875000000e+02	1.692142605781555176e+00
-2.288390443775037753e+00	1.629611206054687500e+02	1.716167926788330078e+00
-2.266534446495819477e+00	1.634529876708984375e+02	1.719248414039611816e+00
-2.244661416158467038e+00	1.618867034912109375e+02	1.711029171943664551e+00
-2.222771517139303654e+00	1.648765258789062500e+02	1.731229543685913086e+00
-2.200864913941420475e+00	1.632260437011718750e+02	1.724904656410217285e+00
-2.178941771193439347e+00	1.632833709716796875e+02	1.741957068443298340e+00
-2.157002253648280021e+00	1.639009246826171875e+02	1.750714421272277832e+00
-2.135046526181918036e+00	1.599372253417968750e+02	1.709862828254699707e+00
-2.113074753792146154e+00	1.636654663085937500e+02	1.724568605422973633e+00
-2.091087101597337128e+00	1.653274230957031250e+02	1.732551336288452148e+00
-2.069083734835197141e+00	1.636279754638671875e+02	1.727481603622436523e+00
-2.047064818861531243e+00	1.673233795166015625e+02	1.746161580085754395e+00
-2.025030519148995456e+00	1.677271270751953125e+02	1.742993950843811035e+00
-2.002981001285856877e+00	1.755671844482421875e+02	1.805122971534729004e+00
-1.980916430974744458e+00	1.660670318603515625e+02	1.781745195388793945e+00
-1.958836974031407552e+00	1.633292236328125000e+02	1.775972008705139160e+00
-1.936742796383470466e+00	1.649196472167968750e+02	1.751174449920654297e+00
-1.914634064069183461e+00	1.652329711914062500e+02	1.692263364791870117e+00
-1.892510943236173304e+00	1.679692840576171875e+02	1.699410319328308105e+00
-1.870373600140198711e+00	1.670979003906250000e+02	1.740854024887084961e+00
-1.848222201143899124e+00	1.686452941894531250e+02	1.838992118835449219e+00
-1.826056912715544600e+00	1.689573364257812500e+02	1.841131687164306641e+00
-1.803877901427782371e+00	1.637258911132812500e+02	1.724946618080139160e+00
-1.781685333956389172e+00	1.678984985351562500e+02	1.700305104255676270e+00
-1.759479377079017359e+00	1.706103210449218750e+02	1.733667850494384766e+00
-1.737260197673940576e+00	1.664269409179687500e+02	1.747930169105529785e+00
-1.715027962718797427e+00	1.721667327880859375e+02	1.794394254684448242e+00
-1.692782839289342034e+00	1.705243835449218750e+02	1.779898762702941895e+00
-1.670524994558186371e+00	1.623168640136718750e+02	1.729144811630249023e+00
-1.648254595793541499e+00	1.692290649414062500e+02	1.771144628524780273e+00
-1.625971810357961900e+00	1.679687042236328125e+02	1.757710218429565430e+00
-1.603676805707089370e+00	1.701749114990234375e+02	1.758366823196411133e+00
-1.581369749388393142e+00	1.760208892822265625e+02	1.785206317901611328e+00
-1.559050809039912222e+00	1.722897949218750000e+02	1.760038018226623535e+00
-1.536720152388991512e+00	1.700343780517578125e+02	1.764570236206054688e+00
-1.514377947251025702e+00	1.735378723144531250e+02	1.783664226531982422e+00
-1.492024361528197618e+00	1.735427398681640625e+02	1.773702025413513184e+00
-1.469659563208215003e+00	1.756750640869140625e+02	1.789325714111328125e+00
-1.447283720363046422e+00	1.739771423339843750e+02	1.784662246704101562e+00
-1.424897001147662934e+00	1.768755340576171875e+02	1.796458244323730469e+00
-1.402499573798769994e+00	1.746580810546875000e+02	1.773611903190612793e+00
-1.380091606633546686e+00	1.809505767822265625e+02	1.800192952156066895e+00
-1.357673268048379178e+00	1.869145965576171875e+02	1.841570854187011719e+00
-1.335244726517590852e+00	1.874688873291015625e+02	1.834848046302795410e+00
-1.312806150592185084e+00	1.936182861328125000e+02	1.869306087493896484e+00
-1.290357708898573375e+00	1.897110137939453125e+02	1.858447909355163574e+00
-1.267899570137306808e+00	1.863069610595703125e+02	1.839088082313537598e+00
-1.245431903081811065e+00	1.822215270996093750e+02	1.808527350425720215e+00
-1.222954876577117433e+00	1.788248291015625000e+02	1.799685955047607422e+00
-1.200468659538593386e+00	1.807189788818359375e+02	1.805648207664489746e+00
-1.177973420950675143e+00	1.796977386474609375e+02	1.782601356506347656e+00
-1.155469329865591366e+00	1.835434265136718750e+02	1.813759803771972656e+00
-1.132956555402103049e+00	1.828396301269531250e+02	1.802044749259948730e+00
-1.110435266744223215e+00	1.819241485595703125e+02	1.803319573402404785e+00
-1.087905633139951922e+00	1.819855041503906250e+02	1.823810338973999023e+00
-1.065367823899998845e+00	1.832540283203125000e+02	1.797262191772460938e+00
-1.042822008396515621e+00	1.791619720458984375e+02	1.788918852806091309e+00
-1.020268356061820425e+00	1.792500762939453125e+02	1.786894679069519043e+00
-9.977070363871275438e-01	1.799246826171875000e+02	1.802281141281127930e+00
-9.751382189212666196e-01	1.780356903076171875e+02	1.775942325592041016e+00
-9.525620732694185522e-01	1.784548339843750000e+02	1.780428647994995117e+00
-9.299787690918326355e-01	1.755864868164062500e+02	1.774226903915405273e+00
-9.073884761025569068e-01	1.782049102783203125e+02	1.778562664985656738e+00
-8.847913640681569492e-01	1.740725250244140625e+02	1.755806207656860352e+00
-8.621876028064474617e-01	1.750371093750000000e+02	1.760648488998413086e+00
-8.395773621852100632e-01	1.751936645507812500e+02	1.755740165710449219e+00
-8.169608121209205320e-01	1.837542572021484375e+02	1.809927105903625488e+00
-7.943381225774672760e-01	1.868383026123046875e+02	1.814832568168640137e+00
-7.717094635648793499e-01	1.741841735839843750e+02	1.750116229057312012e+00
-7.490750051380470342e-01	1.748979797363281250e+02	1.734503507614135742e+00
-7.264349173954429695e-01	1.864235076904296875e+02	1.814074158668518066e+00
-7.037893704778416248e-01	2.326363372802734375e+02	2.026971817016601562e+00
-6.811385345670458724e-01	2.526328430175781250e+02	2.104699611663818359e+00
-6.584825798846059008e-01	2.251414489746093750e+02	1.994016408920288086e+00
-6.358216766905377959e-01	1.887460784912109375e+02	1.800402641296386719e+00
-6.131559952820480053e-01	1.905996856689453125e+02	1.826128959655761719e+00
-5.904857059922479223e-01	1.970995788574218750e+02	1.856440067291259766e+00
-5.678109791888804603e-01	2.083943328857421875e+02	1.912665009498596191e+00
-5.451319852730349691e-01	2.178542785644531250e+02	1.960780739784240723e+00
-5.224488946778702569e-01	2.262995147705078125e+02	1.999864697456359863e+00
-4.997618778673285078e-01	2.363604888916015625e+02	2.033697605133056641e+00
-4.770711053348595798e-01	2.545135498046875000e+02	2.115082502365112305e+00
-4.543767476021373097e-01	2.664823608398437500e+02	2.147433042526245117e+00
-4.316789752177802031e-01	2.839891357421875000e+02	2.207529067993164062e+00
-4.089779587560632979e-01	3.026123046875000000e+02	2.293850421905517578e+00
-3.862738688156451827e-01	3.265510864257812500e+02	2.388131380081176758e+00
-3.635668760182804160e-01	3.507590332031250000e+02	2.457340717315673828e+00
-3.408571510075387168e-01	3.789055786132812500e+02	2.556070327758789062e+00
-3.181448644475218246e-01	4.209574584960937500e+02	2.703411579132080078e+00
-2.954301870215813586e-01	4.603101196289062500e+02	2.805910587310791016e+00
-2.727132894310378419e-01	5.075683288574218750e+02	2.974389791488647461e+00
-2.499943423938967291e-01	5.734815673828125000e+02	3.136739730834960938e+00
-2.272735166435611021e-01	6.585670166015625000e+02	3.365076780319213867e+00
-2.045509829275567459e-01	7.946842651367187500e+02	3.723291158676147461e+00
-1.818269120062442623e-01	1.001912292480468750e+03	4.157980918884277344e+00
-1.591014746515351241e-01	1.084180297851562500e+03	5.145369052886962891e+00
-1.363748416456100065e-01	8.331851196289062500e+02	8.391325950622558594e+00
-1.136471837796345363e-01	6.960000000000000000e+02	2.638181114196777344e+01
-9.091867185247763661e-02	0.000000000000000000e+00	0.000000000000000000e+00
-6.818947666942579144e-02	0.000000000000000000e+00	0.000000000000000000e+00
-4.545976904089817777e-02	0.000000000000000000e+00	0.000000000000000000e+00
-2.272971978116811523e-02	0.000000000000000000e+00	0.000000000000000000e+00
5.002929250554007833e-07	0.000000000000000000e+00	0.000000000000000000e+00
2.273072036325791273e-02	0.000000000000000000e+00	0.000000000000000000e+00
4.546076961170859160e-02	0.000000000000000000e+00	0.000000000000000000e+00
6.819047722143785351e-02	0.000000000000000000e+00	0.000000000000000000e+00
9.091967237817266678e-02	0.000000000000000000e+00	0.000000000000000000e+00
1.136481842714932716e-01	9.460000000000000000e+02	3.075711250305175781e+01
1.363758420961122542e-01	8.926648559570312500e+02	1.377424621582031250e+01
1.591024750531642717e-01	8.371775512695312500e+02	5.380448341369628906e+00
1.818279123514817130e-01	8.244851684570312500e+02	3.815464019775390625e+00
2.045519832088856238e-01	6.800845336914062500e+02	3.391833543777465820e+00
2.272745168534618665e-01	5.856227416992187500e+02	3.144178628921508789e+00
2.499953425248547245e-01	5.130010375976562500e+02	2.938517570495605469e+00
2.727142894755376079e-01	4.624834899902343750e+02	2.804147720336914062e+00
2.954311869721065742e-01	4.244959716796875000e+02	2.705013036727905273e+00
3.181458642965570016e-01	3.823109741210937500e+02	2.544533491134643555e+00
3.408581507475713090e-01	3.549488220214843750e+02	2.477927207946777344e+00
3.635678756417973778e-01	3.294315185546875000e+02	2.383222818374633789e+00
3.862748683151343565e-01	3.056424255371093750e+02	2.274180650711059570e+00
4.089789581240118044e-01	2.871155700683593750e+02	2.218972921371459961e+00
4.316799744466792710e-01	2.704085388183593750e+02	2.137294530868530273e+00
4.543777466844782786e-01	2.587596740722656250e+02	2.092145442962646484e+00
4.770721042631331232e-01	2.420609283447265625e+02	2.015739440917968750e+00
4.997628766340272977e-01	2.258004608154296875e+02	1.959213852882385254e+00
5.224498932754891856e-01	2.213423767089843750e+02	1.933842778205871582e+00
5.451329836940702611e-01	2.053848419189453125e+02	1.859432220458984375e+00
5.678119774258276742e-01	1.984567718505859375e+02	1.832485795021057129e+00
5.904867040376055032e-01	1.985237121582031250e+02	1.829748511314392090e+00
6.131569931283158414e-01	1.866394042968750000e+02	1.772585988044738770e+00
6.358226743302184403e-01	1.797137145996093750e+02	1.737004756927490234e+00
6.584835773101999079e-01	1.796278839111328125e+02	1.752440571784973145e+00
6.811395317710580155e-01	1.770404052734375000e+02	1.736848950386047363e+00
7.037903674527781206e-01	1.760472412109375000e+02	1.718962311744689941e+00
7.264359141338122550e-01	1.780691986083984375e+02	1.737197875976562500e+00
7.490760016323588788e-01	1.715824279785156250e+02	1.708761572837829590e+00
7.717104598076434119e-01	1.717358398437500000e+02	1.703507661819458008e+00
7.943391185611973215e-01	1.742140350341796875e+02	1.713781118392944336e+00
8.169618078381319926e-01	1.725074310302734375e+02	1.705221414566040039e+00
8.395783576284214789e-01	1.706359252929687500e+02	1.694817662239074707e+00
8.621885979681763734e-01	1.739463043212890625e+02	1.711718082427978516e+00
8.847923589409245615e-01	1.771583251953125000e+02	1.732865333557128906e+00
9.073894706788865339e-01	1.753594970703125000e+02	1.719163775444030762e+00
9.299797633642518102e-01	1.747429809570312500e+02	1.716220736503601074e+00
9.525630672304543634e-01	1.745990142822265625e+02	1.715483665466308594e+00
9.751392125634484875e-01	1.800723266601562500e+02	1.741421699523925781e+00
9.977080297029877753e-01	1.820962982177734375e+02	1.756420969963073730e+00
1.020269349043897433e+00	1.799401550292968750e+02	1.739613890647888184e+00
1.042823001037344932e+00	1.802271728515625000e+02	1.736932992935180664e+00
1.065368816192120205e+00	1.827942504882812500e+02	1.731889963150024414e+00
1.087906625075909739e+00	1.816187438964843750e+02	1.746777415275573730e+00
1.110436258316562119e+00	1.799684448242187500e+02	1.749815940856933594e+00
1.132957546603371002e+00	1.762041015625000000e+02	1.725481390953063965e+00
1.155470320688339658e+00	1.816395416259765625e+02	1.752717733383178711e+00
1.177974411387458176e+00	1.805369110107421875e+02	1.725310087203979492e+00
1.200469649581969112e+00	1.783222503662109375e+02	1.714200854301452637e+00
1.222955866219644472e+00	1.752767486572265625e+02	1.720315456390380859e+00
1.245432892316051587e+00	1.766111602783203125e+02	1.734683632850646973e+00
1.267900558955826762e+00	1.760065460205078125e+02	1.728803634643554688e+00
1.290358697293942480e+00	1.764709472656250000e+02	1.725067138671875000e+00
1.312807138556975728e+00	1.753210296630859375e+02	1.710934281349182129e+00
1.335245714044377197e+00	1.748651123046875000e+02	1.697549939155578613e+00
1.357674255129740715e+00	1.767929840087890625e+02	1.702626466751098633e+00
1.380092593262067124e+00	1.742644195556640625e+02	1.689423561096191406e+00
1.402500559967032823e+00	1.739474792480468750e+02	1.701373457908630371e+00
1.424897986848256526e+00	1.752773742675781250e+02	1.720273375511169434e+00
1.447284705588564702e+00	1.734387512207031250e+02	1.718931078910827637e+00
1.469660547951253005e+00	1.730359497070312500e+02	1.719482421875000000e+00
1.492025345781357260e+00	1.708868408203125000e+02	1.702344894409179688e+00
1.514378931006908235e+00	1.747955322265625000e+02	1.715966463088989258e+00
1.536721135640202407e+00	1.696712493896484375e+02	1.660296916961669922e+00
1.559051791779065166e+00	1.746569213867187500e+02	1.694578647613525391e+00
1.581370731608101599e+00	1.700165710449218750e+02	1.696952819824218750e+00
1.603677787399972576e+00	1.710506439208984375e+02	1.706378102302551270e+00
1.625972791516640203e+00	1.731521453857421875e+02	1.716765999794006348e+00
1.648255576410644352e+00	1.700202331542968750e+02	1.696240782737731934e+00
1.670525974626343890e+00	1.739907073974609375e+02	1.707040071487426758e+00
1.692783818801189222e+00	1.728383941650390625e+02	1.705718994140625000e+00
1.715028941666970841e+00	1.717492675781250000e+02	1.698404073715209961e+00
1.737261176051085432e+00	1.723328704833984375e+02	1.702804684638977051e+00
1.759480354877780650e+00	1.712929687500000000e+02	1.692845463752746582e+00
1.781686311169422332e+00	1.656423645019531250e+02	1.667884588241577148e+00
1.803878878047742385e+00	1.676949157714843750e+02	1.680967330932617188e+00
1.826057888735091339e+00	1.711922912597656250e+02	1.698094844818115234e+00
1.848223176555697567e+00	1.655552520751953125e+02	1.667843222618103027e+00
1.870374574936920942e+00	1.657033233642578125e+02	1.669908761978149414e+00
1.892511917410490518e+00	1.651464538574218750e+02	1.668466806411743164e+00
1.914635037613777291e+00	1.678572235107421875e+02	1.687857389450073242e+00
1.936743769291024098e+00	1.684994812011718750e+02	1.690774321556091309e+00
1.958837946294608390e+00	1.679646148681640625e+02	1.682063698768615723e+00
1.980917402586287457e+00	1.670735015869140625e+02	1.678845524787902832e+00
2.002981972238438768e+00	1.665516510009765625e+02	1.675082445144653320e+00
2.025031489435320076e+00	1.634670562744140625e+02	1.669830203056335449e+00
2.047065788474307091e+00	1.644461059570312500e+02	1.667832016944885254e+00
2.069084703767137601e+00	1.642007751464843750e+02	1.668462991714477539e+00
2.091088069841160468e+00	1.608016662597656250e+02	1.646623492240905762e+00
2.113075721340576418e+00	1.610883331298828125e+02	1.661596655845642090e+00
2.135047493027682819e+00	1.616998748779296875e+02	1.652781844139099121e+00
2.157003219784115799e+00	1.626357116699218750e+02	1.658473372459411621e+00
2.178942736612083486e+00	1.608859863281250000e+02	1.646353840827941895e+00
2.200865878635618778e+00	1.602553710937500000e+02	1.652943015098571777e+00
2.222772481101805919e+00	1.605386962890625000e+02	1.651825189590454102e+00
2.244662379382028838e+00	1.593830413818359375e+02	1.639322400093078613e+00
2.266535408973203491e+00	1.595028533935546875e+02	1.639758825302124023e+00
2.288391405499009768e+00	1.585572204589843750e+02	1.647455573081970215e+00
2.310230204711135382e+00	1.587617187500000000e+02	1.636390328407287598e+00
2.332051642490507781e+00	1.576788177490234375e+02	1.646519303321838379e+00
2.353855554848519827e+00	1.580204467773437500e+02	1.638681411743164062e+00
2.375641777928275911e+00	1.573710937500000000e+02	1.633800029754638672e+00
2.397410148005809649e+00	1.551116943359375000e+02	1.631526827812194824e+00
2.419160501491322002e+00	1.552521057128906250e+02	1.620388746261596680e+00
2.440892674930412731e+00	1.523919677734375000e+02	1.602374196052551270e+00
2.462606505005299429e+00	1.540471649169921875e+02	1.624559760093688965e+00
2.484301828536053858e+00	1.535244750976562500e+02	1.627727746963500977e+00
2.505978482481826752e+00	1.525102081298828125e+02	1.612683176994323730e+00
2.527636303942062845e+00	1.524966735839843750e+02	1.610495805740356445e+00
2.549275130157745650e+00	1.546988220214843750e+02	1.621598362922668457e+00
2.570894798512596946e+00	1.507812194824218750e+02	1.597873091697692871e+00
2.592495146534316675e+00	1.493595428466796875e+02	1.606037497520446777e+00
2.614076011895798857e+00	1.490882873535156250e+02	1.611735105514526367e+00
2.635637232416343068e+00	1.496090087890625000e+02	1.607313752174377441e+00
2.657178646062886340e+00	1.487595672607421875e+02	1.600105524063110352e+00
2.678700090951215085e+00	1.460189514160156250e+02	1.592691063880920410e+00
2.700201405347177008e+00	1.424071655273437500e+02	1.579251527786254883e+00
2.721682427667905024e+00	1.455905914306640625e+02	1.602313518524169922e+00
2.743142996483022955e+00	1.463277587890625000e+02	1.593763709068298340e+00
2.764582950515868109e+00	1.472418670654296875e+02	1.583977103233337402e+00
2.786002128644697873e+00	1.451627044677734375e+02	1.579513549804687500e+00
2.807400369903895410e+00	1.414351043701171875e+02	1.559077978134155273e+00
2.828777513485191353e+00	1.400095977783203125e+02	1.550366044044494629e+00
2.850133398738864621e+00	1.440458068847656250e+02	1.590454936027526855e+00
2.871467865174947232e+00	1.394477081298828125e+02	1.552050471305847168e+00
2.892780752464437555e+00	1.394491729736328125e+02	1.542792081832885742e+00
2.914071900440499352e+00	1.408736572265625000e+02	1.562648415565490723e+00
2.935341149099671476e+00	1.394617919921875000e+02	1.555778861045837402e+00
2.956588338603065136e+00	1.411045074462890625e+02	1.557190656661987305e+00
2.977813309277562492e+00	1.392172698974609375e+02	1.550681114196777344e+00
2.999015901617029023e+00	1.378414154052734375e+02	1.543019413948059082e+00
3.020195956283493466e+00	1.405882873535156250e+02	1.565833210945129395e+00
3.041353314108365069e+00	1.382129516601562500e+02	1.553652167320251465e+00
3.062487816093615312e+00	1.384216766357421875e+02	1.554170012474060059e+00
3.083599303412978720e+00	1.381164550781250000e+02	1.551064729690551758e+00
3.104687617413144807e+00	1.344984893798828125e+02	1.516752481460571289e+00
3.125752599614958882e+00	1.341047210693359375e+02	1.515957117080688477e+00
3.146794091714587793e+00	1.363298645019531250e+02	1.541987538337707520e+00
3.167811935584747385e+00	1.360134582519531250e+02	1.543313860893249512e+00
3.188805973275854910e+00	1.334649963378906250e+02	1.526745319366455078e+00
3.209776047017238731e+00	1.359248657226562500e+02	1.547226428985595703e+00
3.230721999218318707e+00	1.331008148193359375e+02	1.536694049835205078e+00
3.251643672469782143e+00	1.314227447509765625e+02	1.520965814590454102e+00
3.272540909544777943e+00	1.317521972656250000e+02	1.521511554718017578e+00
3.293413553400094784e+00	1.311764831542968750e+02	1.522404789924621582e+00
3.314261447177333952e+00	1.315293731689453125e+02	1.505255699157714844e+00
3.335084434204098613e+00	1.333948669433593750e+02	1.535572409629821777e+00
3.355882357995163545e+00	1.281871185302734375e+02	1.500910043716430664e+00
3.376655062253659079e+00	1.294985198974609375e+02	1.498157382011413574e+00
3.397402390872239497e+00	1.318175354003906250e+02	1.524291634559631348e+00
3.418124187934251879e+00	1.270450210571289062e+02	1.491807103157043457e+00
3.438820297714921370e+00	1.283177032470703125e+02	1.505019545555114746e+00
3.459490564682511149e+00	1.307841339111328125e+02	1.514422059059143066e+00
3.480134833499489488e+00	1.287845458984375000e+02	1.503092288970947266e+00
3.500752949023708371e+00	1.293403778076171875e+02	1.511721849441528320e+00
3.521344756309554569e+00	1.263726577758789062e+02	1.492051601409912109e+00
3.541910100609128698e+00	1.273092346191406250e+02	1.498247861862182617e+00
3.562448827373399407e+00	1.301010284423828125e+02	1.523392438888549805e+00
3.582960782253362453e+00	1.275146636962890625e+02	1.503131270408630371e+00
3.603445811101212648e+00	1.250704421997070312e+02	1.488434433937072754e+00
3.623903759971486505e+00	1.269761428833007812e+02	1.494169473648071289e+00
3.644334475122232853e+00	1.262936019897460938e+02	1.510616898536682129e+00
3.664737803016163031e+00	1.259630203247070312e+02	1.495637536048889160e+00
3.685113590321796639e+00	1.250392990112304688e+02	1.504768610000610352e+00
3.705461683914629489e+00	1.213459396362304688e+02	1.463500857353210449e+00
3.725781930878277581e+00	1.261361465454101562e+02	1.504110574722290039e+00
3.746074178505612640e+00	1.251592712402343750e+02	1.499036788940429688e+00
3.766338274299935396e+00	1.235551605224609375e+02	1.479142427444458008e+00
3.786574065976100911e+00	1.218065567016601562e+02	1.477191567420959473e+00
3.806781401461674985e+00	1.224997024536132812e+02	1.476528525352478027e+00
3.826960128898070135e+00	1.223353958129882812e+02	1.475908756256103516e+00
3.847110096641685129e+00	1.226930313110351562e+02	1.493488669395446777e+00
3.867231153265053845e+00	1.251754913330078125e+02	1.495928764343261719e+00
3.887323147557979031e+00	1.243661193847656250e+02	1.492595434188842773e+00
3.907385928528661179e+00	1.235016098022460938e+02	1.500529885292053223e+00
3.927419345404844275e+00	1.235326080322265625e+02	1.491794347763061523e+00
3.947423247634942012e+00	1.234901351928710938e+02	1.496064186096191406e+00
3.967397484889174208e+00	1.218459701538085938e+02	1.482966184616088867e+00
3.987341907060690360e+00	1.227937164306640625e+02	1.491818785667419434e+00
4.007256364266701176e+00	1.217843856811523438e+02	1.482667922973632812e+00
4.027140706849607454e+00	1.199713973999023438e+02	1.472255229949951172e+00
4.046994785378121406e+00	1.205056076049804688e+02	1.477941632270812988e+00
4.066818450648387540e+00	1.223019409179687500e+02	1.488450288772583008e+00
4.086611553685110643e+00	1.206648025512695312e+02	1.474766612052917480e+00
4.106373945742666010e+00	1.208826980590820312e+02	1.486119508743286133e+00
4.126105478306227425e+00	1.184595489501953125e+02	1.478832602500915527e+00
4.145806003092879166e+00	1.209861755371093750e+02	1.495591163635253906e+00
4.165475372052725334e+00	1.194612884521484375e+02	1.476862788200378418e+00
4.185113437370008960e+00	1.183846435546875000e+02	1.464304089546203613e+00
4.204720051464222230e+00	1.191922988891601562e+02	1.475882649421691895e+00
4.224295066991207825e+00	1.195092163085937500e+02	1.480634808540344238e+00
4.243838336844284242e+00	1.194361648559570312e+02	1.471104264259338379e+00
4.263349714155326708e+00	1.190021514892578125e+02	1.464038968086242676e+00
4.282829052295890726e+00	1.197952270507812500e+02	1.494495749473571777e+00
4.302276204878307198e+00	1.171297760009765625e+02	1.505119085311889648e+00
4.321691025756774884e+00	1.179217910766601562e+02	1.502573609352111816e+00
4.341073369028478623e+00	1.171070709228515625e+02	1.454544425010681152e+00
4.360423089034657806e+00	1.139474258422851562e+02	1.397539973258972168e+00
4.379740040361731701e+00	1.176094665527343750e+02	1.435390353202819824e+00
4.399024077842367930e+00	1.153883819580078125e+02	1.481994390487670898e+00
4.418275056556582037e+00	1.165298385620117188e+02	1.537316322326660156e+00
4.437492831832830831e+00	1.153226547241210938e+02	1.496305584907531738e+00
4.456677259249094192e+00	1.152303543090820312e+02	1.431367874145507812e+00
4.475828194633963975e+00	1.146797561645507812e+02	1.412376046180725098e+00
4.494945494067719594e+00	1.145311203002929688e+02	1.443059086799621582e+00
4.514029013883421371e+00	1.127730712890625000e+02	1.453112125396728516e+00
4.533078610667981678e+00	1.139542770385742188e+02	1.459350347518920898e+00
4.552094141263245852e+00	1.117006378173828125e+02	1.433138370513916016e+00
4.571075462767066000e+00	1.113730773925781250e+02	1.431308865547180176e+00
4.590022432534379249e+00	1.134516601562500000e+02	1.440782666206359863e+00
4.608934908178274448e+00	1.118494110107421875e+02	1.433017969131469727e+00
4.627812747571061536e+00	1.123239669799804688e+02	1.427938580513000488e+00
4.646655808845352453e+00	1.125897750854492188e+02	1.429113507270812988e+00
4.665463950395107418e+00	1.073928756713867188e+02	1.394438028335571289e+00
4.684237030876713170e+00	1.048166427612304688e+02	1.380451917648315430e+00
4.702974909210045240e+00	1.104457855224609375e+02	1.421194911003112793e+00
4.721677444579512439e+00	1.116296920776367188e+02	1.425154805183410645e+00
4.740344496435141330e+00	1.127897949218750000e+02	1.432570695877075195e+00
4.758975924493607401e+00	1.085349426269531250e+02	1.402798295021057129e+00
4.777571588739305319e+00	1.127330398559570312e+02	1.427789092063903809e+00
4.796131349425390766e+00	1.139205627441406250e+02	1.434935450553894043e+00
4.814655067074840034e+00	1.113951721191406250e+02	1.411800861358642578e+00
4.833142602481489192e+00	1.092983016967773438e+02	1.398876309394836426e+00
4.851593816711093687e+00	1.112480087280273438e+02	1.414716958999633789e+00
4.870008571102351524e+00	1.111242675781250000e+02	1.415350437164306641e+00
4.888386727267965526e+00	1.094480056762695312e+02	1.401658535003662109e+00
4.906728147095670067e+00	1.119798431396484375e+02	1.416530966758728027e+00
4.925032692749278240e+00	1.124430313110351562e+02	1.421875119209289551e+00
4.943300226669711250e+00	1.076260223388671875e+02	1.381361007690429688e+00
4.961530611576031369e+00	1.092732696533203125e+02	1.399291276931762695e+00
4.979723710466484654e+00	1.098892440795898438e+02	1.397138118743896484e+00
4.997879386619515252e+00	1.096299438476562500e+02	1.391742944717407227e+00
5.015997503594799234e+00	1.092169799804687500e+02	1.397327303886413574e+00
5.034077925234278439e+00	1.092867431640625000e+02	1.390353679656982422e+00
5.052120515663168554e+00	1.110536193847656250e+02	1.410428047180175781e+00
5.070125139290989402e+00	1.072271652221679688e+02	1.376622796058654785e+00
5.088091660812586348e+00	1.084991683959960938e+02	1.380899548530578613e+00
5.106019945209137489e+00	1.102276077270507812e+02	1.411882638931274414e+00
5.123909857749178620e+00	1.101687622070312500e+02	1.388348340988159180e+00
5.141761263989605979e+00	1.078520889282226562e+02	1.377830624580383301e+00
5.159574029776693216e+00	1.095335540771484375e+02	1.381639957427978516e+00
5.177348021247101251e+00	1.074285964965820312e+02	1.390385389328002930e+00
5.195083104828875697e+00	1.092057876586914062e+02	1.388836145401000977e+00
5.212779147242459388e+00	1.063769607543945312e+02	1.383685827255249023e+00
5.230436015501691571e+00	1.061684265136718750e+02	1.362709403038024902e+00
5.248053576914800900e+00	1.081778182983398438e+02	1.394647717475891113e+00
5.265631699085409956e+00	1.089325027465820312e+02	1.383342862129211426e+00
5.283170249913534455e+00	1.057478485107421875e+02	1.359922885894775391e+00
5.300669097596559354e+00	1.078502120971679688e+02	1.373821020126342773e+00
5.318128110630246930e+00	1.059627075195312500e+02	1.360845327377319336e+00
5.335547157809714669e+00	1.086190185546875000e+02	1.387225985527038574e+00
5.352926108230426472e+00	1.077377471923828125e+02	1.363076448440551758e+00
5.370264831289172314e+00	1.069631805419921875e+02	1.370785117149353027e+00
5.387563196685049682e+00	1.056143569946289062e+02	1.361298918724060059e+00
5.404821074420451232e+00	1.050384063720703125e+02	1.356513023376464844e+00
5.422038334802028459e+00	1.064886779785156250e+02	1.362975478172302246e+00
5.439214848441679351e+00	1.051301345825195312e+02	1.355104684829711914e+00
5.456350486257512067e+00	1.061697463989257812e+02	1.365254044532775879e+00
5.473445119474812159e+00	1.073337936401367188e+02	1.376345992088317871e+00
5.490498619627024013e+00	1.028088912963867188e+02	1.342345714569091797e+00
5.507510858556706523e+00	1.040946731567382812e+02	1.349098682403564453e+00
5.524481708416492332e+00	1.037109909057617188e+02	1.345515131950378418e+00
5.541411041670059490e+00	1.029449386596679688e+02	1.337440013885498047e+00
5.558298731093077372e+00	1.031202697753906250e+02	1.342411637306213379e+00
5.575144649774178340e+00	1.020372161865234375e+02	1.324217677116394043e+00
5.591948671115898328e+00	1.027005767822265625e+02	1.339515089988708496e+00
5.608710668835632518e+00	1.031065979003906250e+02	1.339959740638732910e+00
5.625430516966583916e+00	1.017018661499023438e+02	1.329491138458251953e+00
5.642108089858714592e+00	1.034202575683593750e+02	1.329153776168823242e+00
5.658743262179680933e+00	1.027753906250000000e+02	1.333764910697937012e+00
5.675335908915784877e+00	1.014907455444335938e+02	1.325518369674682617e+00
5.691885905372906507e+00	9.952526092529296875e+01	1.303027510643005371e+00
5.708393127177443738e+00	1.034938507080078125e+02	1.335330486297607422e+00
5.724857450277248461e+00	1.032089080810546875e+02	1.335485577583312988e+00
5.741278750942555575e+00	1.010604476928710938e+02	1.311082243919372559e+00
5.757656905766917355e+00	1.013833541870117188e+02	1.312252044677734375e+00
5.773991791668123597e+00	1.016464004516601562e+02	1.325029253959655762e+00
5.790283285889137765e+00	1.030636978149414062e+02	1.342792034149169922e+00
5.806531265999004709e+00	1.006700439453125000e+02	1.324780583381652832e+00
5.822735609893783248e+00	1.002110595703125000e+02	1.312593102455139160e+00
5.838896195797460997e+00	1.016903533935546875e+02	1.321611523628234863e+00
5.855012902262862973e+00	1.018127975463867188e+02	1.243320941925048828e+00
